0.000999877
3.00113
-2.99863
-5.99876
6.00126
9.0014
-8.9989
-11.9985
12.0005
15.0007
-14.9987
-17.9988
18.0008
21.0009
-20.9989
-23.9986
24.0006
27.0007
-26.9992
-29.9988
30.0008
33.001
-32.999
-35.9986
36.0006
39.0007
-38.9987
-41.9989
42.0009
45.001
-44.999
-47.9986
48.0006
51.0008
-50.9988
-53.9989
54.0009
57
-56.9985
60.0006